Time,x0(t),x1(t)
0.0,0.10767,0.00781
0.02,0.10776,0.00808
0.04,0.10784,0.00836
0.06,0.10793,0.00865
0.08,0.10802,0.00895
0.1,0.1081,0.00925
0.12,0.10818,0.00957
0.14,0.10826,0.0099
0.16,0.10832,0.01024
0.18,0.10838,0.0106
0.2,0.10843,0.01096
0.22,0.10847,0.01134
0.24,0.1085,0.01173
0.26,0.10853,0.01213
0.28,0.10854,0.01255
0.3,0.10855,0.01298
0.32,0.10854,0.01343
0.34,0.10853,0.01389
0.36,0.1085,0.01436
0.38,0.10846,0.01485
0.4,0.10842,0.01536
0.42,0.10836,0.01589
0.44,0.10829,0.01643
0.46,0.10821,0.01699
0.48,0.10812,0.01757
0.5,0.10801,0.01816
0.52,0.10789,0.01878
0.54,0.10776,0.01941
0.56,0.10762,0.02007
0.58,0.10746,0.02074
0.6,0.10728,0.02144
0.62,0.10709,0.02216
0.64,0.10689,0.0229
0.66,0.10667,0.02366
0.68,0.10644,0.02445
0.7,0.10618,0.02526
0.72,0.10591,0.02609
0.74,0.10563,0.02695
0.76,0.10532,0.02784
0.78,0.105,0.02874
0.8,0.10466,0.02968
0.82,0.10429,0.03064
0.84,0.10391,0.03163
0.86,0.10351,0.03264
0.88,0.10309,0.03368
0.9,0.10265,0.03475
0.92,0.10219,0.03585
0.94,0.10171,0.03697
0.96,0.1012,0.03812
0.98,0.10067,0.03931
1.0,0.10012,0.04052
1.02,0.09955,0.04176
1.04,0.09896,0.04302
1.06,0.09834,0.04432
1.08,0.0977,0.04565
1.1,0.09703,0.047
1.12,0.09635,0.04839
1.14,0.09564,0.0498
1.16,0.0949,0.05124
1.18,0.09415,0.05271
1.2,0.09337,0.0542
1.22,0.09256,0.05573
1.24,0.09174,0.05728
1.26,0.09089,0.05885
1.28,0.09001,0.06045
1.3,0.08912,0.06208
1.32,0.0882,0.06373
1.34,0.08726,0.0654
1.36,0.0863,0.0671
1.38,0.08532,0.06881
1.4,0.08432,0.07055
1.42,0.0833,0.0723
1.44,0.08226,0.07408
1.46,0.08121,0.07587
1.48,0.08013,0.07767
1.5,0.07904,0.07949
1.52,0.07793,0.08132
1.54,0.07681,0.08317
1.56,0.07567,0.08502
1.58,0.07452,0.08688
1.6,0.07335,0.08874
1.62,0.07218,0.09062
1.64,0.07099,0.09249
1.66,0.0698,0.09436
1.68,0.0686,0.09624
1.7,0.06739,0.09811
1.72,0.06617,0.09998
1.74,0.06495,0.10184
1.76,0.06373,0.1037
1.78,0.0625,0.10554
1.8,0.06128,0.10738
1.82,0.06005,0.1092
1.84,0.05882,0.11095
1.86,0.0576,0.11249
1.88,0.05638,0.11388
1.9,0.05517,0.11516
1.92,0.05397,0.1163
1.94,0.05279,0.11732
1.96,0.05162,0.11824
1.98,0.05047,0.11911
2.0,0.04935,0.11994
2.02,0.04829,0.12071
2.04,0.04724,0.12148
2.06,0.04621,0.12223
2.08,0.0452,0.12297
2.1,0.04421,0.12367
2.12,0.04323,0.12432
2.14,0.04227,0.12493
2.16,0.04132,0.12551
2.18,0.0404,0.12608
2.2,0.03949,0.12662
2.22,0.03859,0.12715
2.24,0.03772,0.12764
2.26,0.03686,0.12812
2.28,0.03601,0.12859
2.3,0.03519,0.12905
2.32,0.03438,0.12949
2.34,0.03358,0.12991
2.36,0.03281,0.1303
2.38,0.03204,0.13067
2.4,0.0313,0.13102
2.42,0.03057,0.13136
2.44,0.02985,0.13169
2.46,0.02915,0.132
2.48,0.02846,0.13231
2.5,0.02779,0.13262
2.52,0.02714,0.1329
2.54,0.02649,0.13318
2.56,0.02587,0.13343
2.58,0.02525,0.13368
2.6,0.02465,0.13391
2.62,0.02409,0.13412
2.64,0.02358,0.13432
2.66,0.02311,0.13451
2.68,0.02265,0.13468
2.7,0.02221,0.13485
2.72,0.02179,0.13502
2.74,0.02139,0.13517
2.76,0.021,0.13531
2.78,0.02062,0.13544
2.8,0.02026,0.13557
2.82,0.0199,0.13568
2.84,0.01957,0.13579
2.86,0.01923,0.13588
2.88,0.01892,0.13597
2.9,0.01861,0.13605
2.92,0.01831,0.13613
2.94,0.01802,0.13619
2.96,0.01773,0.13625
2.98,0.01746,0.13631
3.0,0.01718,0.13635
3.02,0.01691,0.13639
3.04,0.01665,0.13643
3.06,0.01641,0.13646
3.08,0.01616,0.13648
3.1,0.01593,0.1365
3.12,0.01571,0.13652
3.14,0.01549,0.13653
3.16,0.01527,0.13653
3.18,0.01506,0.13653
3.2,0.01485,0.13653
3.22,0.01465,0.13652
3.24,0.01445,0.13651
3.26,0.01425,0.13649
3.28,0.01406,0.13646
3.3,0.01387,0.13643
3.32,0.01368,0.1364
3.34,0.01351,0.13636
3.36,0.01333,0.13632
3.38,0.01316,0.13627
3.4,0.01299,0.13621
3.42,0.01282,0.13616
3.44,0.01266,0.1361
3.46,0.01251,0.13603
3.48,0.01236,0.13597
3.5,0.01221,0.13589
3.52,0.01206,0.13582
3.54,0.01192,0.13574
3.56,0.01178,0.13566
3.58,0.01165,0.13558
3.6,0.01151,0.13549
3.62,0.01138,0.1354
3.64,0.01125,0.13531
3.66,0.01112,0.13522
3.68,0.01099,0.13513
3.7,0.01087,0.13504
3.72,0.01074,0.13494
3.74,0.01062,0.13484
3.76,0.01051,0.13474
3.78,0.01039,0.13463
3.8,0.01028,0.13453
3.82,0.01017,0.13442
3.84,0.01007,0.13431
3.86,0.00996,0.13419
3.88,0.00986,0.13407
3.9,0.00976,0.13396
3.92,0.00965,0.13383
3.94,0.00955,0.13371
3.96,0.00945,0.13358
3.98,0.00936,0.13346
4.0,0.00926,0.13333
4.02,0.00916,0.13319
4.04,0.00907,0.13306
4.06,0.00898,0.13292
4.08,0.00888,0.13278
4.1,0.00879,0.13264
4.12,0.0087,0.1325
4.14,0.00862,0.13236
4.16,0.00853,0.13222
4.18,0.00845,0.13207
4.2,0.00837,0.13192
4.22,0.00829,0.13177
4.24,0.00821,0.13162
4.26,0.00813,0.13147
4.28,0.00806,0.13132
4.3,0.00798,0.13116
4.32,0.00791,0.131
4.34,0.00784,0.13085
4.36,0.00777,0.13069
4.38,0.0077,0.13052
4.4,0.00763,0.13036
4.42,0.00756,0.1302
4.44,0.00749,0.13003
4.46,0.00743,0.12987
4.48,0.00736,0.1297
4.5,0.0073,0.12953
4.52,0.00724,0.12935
4.54,0.00718,0.12918
4.56,0.00712,0.129
4.58,0.00706,0.12882
4.6,0.007,0.12864
4.62,0.00694,0.12846
4.64,0.00689,0.12827
4.66,0.00683,0.12809
4.68,0.00677,0.1279
4.7,0.00672,0.12771
4.72,0.00667,0.12752
4.74,0.00662,0.12733
4.76,0.00657,0.12714
4.78,0.00652,0.12694
4.8,0.00647,0.12675
4.82,0.00643,0.12655
4.84,0.00638,0.12635
4.86,0.00634,0.12615
4.88,0.0063,0.12595
4.9,0.00626,0.12575
4.92,0.00621,0.12555
4.94,0.00617,0.12534
4.96,0.00613,0.12514
4.98,0.00609,0.12493
