Time,x0(t),x1(t)
0.0,0.10767,0.0094
0.02,0.10774,0.00972
0.04,0.10782,0.01006
0.06,0.10789,0.0104
0.08,0.10797,0.01076
0.1,0.10803,0.01113
0.12,0.1081,0.01151
0.14,0.10815,0.01191
0.16,0.10819,0.01232
0.18,0.10822,0.01274
0.2,0.10825,0.01318
0.22,0.10826,0.01363
0.24,0.10827,0.0141
0.26,0.10826,0.01458
0.28,0.10824,0.01508
0.3,0.10821,0.0156
0.32,0.10817,0.01613
0.34,0.10812,0.01669
0.36,0.10806,0.01726
0.38,0.10798,0.01784
0.4,0.10789,0.01845
0.42,0.10779,0.01908
0.44,0.10768,0.01973
0.46,0.10755,0.0204
0.48,0.1074,0.02109
0.5,0.10725,0.0218
0.52,0.10707,0.02253
0.54,0.10689,0.02329
0.56,0.10668,0.02407
0.58,0.10646,0.02487
0.6,0.10623,0.0257
0.62,0.10597,0.02655
0.64,0.1057,0.02743
0.66,0.10541,0.02834
0.68,0.1051,0.02927
0.7,0.10477,0.03023
0.72,0.10442,0.03121
0.74,0.10406,0.03222
0.76,0.10367,0.03327
0.78,0.10326,0.03434
0.8,0.10283,0.03543
0.82,0.10238,0.03656
0.84,0.10191,0.03772
0.86,0.10142,0.03891
0.88,0.1009,0.04012
0.9,0.10036,0.04137
0.92,0.0998,0.04265
0.94,0.09922,0.04396
0.96,0.09861,0.0453
0.98,0.09797,0.04666
1.0,0.09732,0.04806
1.02,0.09664,0.04949
1.04,0.09593,0.05095
1.06,0.0952,0.05244
1.08,0.09445,0.05396
1.1,0.09368,0.05551
1.12,0.09288,0.05709
1.14,0.09205,0.05869
1.16,0.0912,0.06033
1.18,0.09033,0.06199
1.2,0.08944,0.06367
1.22,0.08852,0.06539
1.24,0.08758,0.06712
1.26,0.08662,0.06888
1.28,0.08564,0.07067
1.3,0.08464,0.07247
1.32,0.08361,0.0743
1.34,0.08257,0.07614
1.36,0.08151,0.078
1.38,0.08042,0.07988
1.4,0.07932,0.08178
1.42,0.07821,0.08368
1.44,0.07708,0.0856
1.46,0.07593,0.08753
1.48,0.07477,0.08947
1.5,0.0736,0.09141
1.52,0.07241,0.09336
1.54,0.07122,0.09531
1.56,0.07001,0.09727
1.58,0.0688,0.09922
1.6,0.06758,0.10117
1.62,0.06635,0.10312
1.64,0.06512,0.10506
1.66,0.06388,0.10699
1.68,0.06265,0.10891
1.7,0.06141,0.11082
1.72,0.06016,0.11262
1.74,0.05893,0.11418
1.76,0.0577,0.11558
1.78,0.05647,0.11685
1.8,0.05526,0.11796
1.82,0.05407,0.11895
1.84,0.05289,0.11987
1.86,0.05175,0.12076
1.88,0.05065,0.12159
1.9,0.04956,0.1224
1.92,0.04848,0.1232
1.94,0.04743,0.12397
1.96,0.04639,0.12473
1.98,0.04536,0.12542
2.0,0.04436,0.12607
2.02,0.04337,0.12668
2.04,0.0424,0.12728
2.06,0.04145,0.12786
2.08,0.04051,0.12841
2.1,0.03959,0.12893
2.12,0.03869,0.12944
2.14,0.03781,0.12993
2.16,0.03694,0.13042
2.18,0.0361,0.13088
2.2,0.03526,0.13131
2.22,0.03445,0.13171
2.24,0.03365,0.13209
2.26,0.03287,0.13246
2.28,0.0321,0.13281
2.3,0.03135,0.13315
2.32,0.03061,0.13349
2.34,0.02989,0.13381
2.36,0.02919,0.13412
2.38,0.0285,0.13441
2.4,0.02783,0.1347
2.42,0.02717,0.13496
2.44,0.02652,0.13522
2.46,0.02589,0.13545
2.48,0.02527,0.13568
2.5,0.02467,0.13589
2.52,0.02408,0.13609
2.54,0.02353,0.13629
2.56,0.02304,0.13647
2.58,0.02258,0.13664
2.6,0.02213,0.13679
2.62,0.02169,0.13694
2.64,0.02129,0.13707
2.66,0.02089,0.1372
2.68,0.02051,0.13731
2.7,0.02014,0.13742
2.72,0.01978,0.13752
2.74,0.01944,0.13761
2.76,0.0191,0.13769
2.78,0.01878,0.13777
2.8,0.01847,0.13783
2.82,0.01817,0.13789
2.84,0.01788,0.13795
2.86,0.01759,0.13799
2.88,0.01731,0.13804
2.9,0.01704,0.13807
2.92,0.01677,0.13811
2.94,0.01651,0.13813
2.96,0.01625,0.13815
2.98,0.01601,0.13817
3.0,0.01577,0.13818
3.02,0.01554,0.13818
3.04,0.01533,0.13817
3.06,0.01511,0.13817
3.08,0.0149,0.13815
3.1,0.01469,0.13813
3.12,0.01449,0.1381
3.14,0.01428,0.13807
3.16,0.01409,0.13804
3.18,0.0139,0.138
3.2,0.01371,0.13795
3.22,0.01353,0.1379
3.24,0.01334,0.13785
3.26,0.01317,0.13779
3.28,0.013,0.13773
3.3,0.01283,0.13767
3.32,0.01266,0.1376
3.34,0.0125,0.13753
3.36,0.01234,0.13746
3.38,0.01219,0.13738
3.4,0.01205,0.1373
3.42,0.0119,0.13721
3.44,0.01176,0.13713
3.46,0.01162,0.13703
3.48,0.01148,0.13694
3.5,0.01135,0.13684
3.52,0.01122,0.13674
3.54,0.01109,0.13664
3.56,0.01096,0.13654
3.58,0.01084,0.13643
3.6,0.01071,0.13632
3.62,0.01059,0.13621
3.64,0.01047,0.1361
3.66,0.01035,0.13599
3.68,0.01023,0.13587
3.7,0.01012,0.13575
3.72,0.01001,0.13562
3.74,0.00991,0.1355
3.76,0.0098,0.13537
3.78,0.0097,0.13524
3.8,0.0096,0.13511
3.82,0.0095,0.13498
3.84,0.0094,0.13484
3.86,0.0093,0.13471
3.88,0.0092,0.13457
3.9,0.00911,0.13443
3.92,0.00901,0.13428
3.94,0.00892,0.13414
3.96,0.00883,0.13399
3.98,0.00874,0.13384
4.0,0.00865,0.13369
4.02,0.00856,0.13354
4.04,0.00848,0.13339
4.06,0.00839,0.13323
4.08,0.00831,0.13308
4.1,0.00823,0.13292
4.12,0.00815,0.13276
4.14,0.00807,0.1326
4.16,0.008,0.13244
4.18,0.00793,0.13228
4.2,0.00786,0.13211
4.22,0.0078,0.13195
4.24,0.00773,0.13178
4.26,0.00767,0.13161
4.28,0.00761,0.13144
4.3,0.00754,0.13127
4.32,0.00748,0.1311
4.34,0.00742,0.13092
4.36,0.00736,0.13075
4.38,0.0073,0.13057
4.4,0.00724,0.13039
4.42,0.00719,0.13021
4.44,0.00713,0.13003
4.46,0.00708,0.12984
4.48,0.00702,0.12965
4.5,0.00697,0.12946
4.52,0.00692,0.12927
4.54,0.00686,0.12908
4.56,0.00681,0.12889
4.58,0.00676,0.12869
4.6,0.00671,0.12849
4.62,0.00666,0.12829
4.64,0.00662,0.12809
4.66,0.00657,0.12789
4.68,0.00652,0.12768
4.7,0.00647,0.12748
4.72,0.00642,0.12727
4.74,0.00638,0.12707
4.76,0.00633,0.12686
4.78,0.00629,0.12665
4.8,0.00625,0.12644
4.82,0.0062,0.12623
4.84,0.00616,0.12601
4.86,0.00612,0.1258
4.88,0.00608,0.12558
4.9,0.00604,0.12538
4.92,0.006,0.1252
4.94,0.00596,0.12502
4.96,0.00592,0.12484
4.98,0.00588,0.12466
5.0,0.00584,0.12448
5.02,0.0058,0.12429
5.04,0.00577,0.12411
5.06,0.00573,0.12392
5.08,0.00569,0.12374
5.1,0.00565,0.12355
5.12,0.00561,0.12336
5.14,0.00558,0.12317
5.16,0.00554,0.12298
5.18,0.0055,0.12278
5.2,0.00547,0.12259
5.22,0.00543,0.1224
5.24,0.0054,0.1222
5.26,0.00536,0.122
5.28,0.00533,0.12181
5.3,0.00529,0.12161
5.32,0.00526,0.12141
5.34,0.00522,0.12121
5.36,0.00519,0.12101
5.38,0.00516,0.12081
5.4,0.00512,0.1206
5.42,0.00509,0.1204
5.44,0.00506,0.1202
5.46,0.00503,0.11999
5.48,0.005,0.11979
5.5,0.00496,0.11958
5.52,0.00493,0.11937
5.54,0.0049,0.11916
5.56,0.00487,0.11895
5.58,0.00484,0.11874
5.6,0.00481,0.11853
5.62,0.00478,0.11832
5.64,0.00475,0.11811
5.66,0.00473,0.1179
5.68,0.0047,0.11768
5.7,0.00467,0.11747
5.72,0.00464,0.11725
5.74,0.00462,0.11704
5.76,0.00459,0.11682
5.78,0.00456,0.1166
5.8,0.00454,0.11639
5.82,0.00451,0.11617
5.84,0.00448,0.11595
5.86,0.00446,0.11573
5.88,0.00443,0.11551
5.9,0.00441,0.11529
5.92,0.00439,0.11507
5.94,0.00436,0.11485
5.96,0.00434,0.11462
5.98,0.00432,0.1144
6.0,0.00429,0.11418
6.02,0.00427,0.11395
6.04,0.00425,0.11373
6.06,0.00423,0.11351
6.08,0.00421,0.11328
6.1,0.00418,0.11306
6.12,0.00416,0.11283
6.14,0.00414,0.11261
6.16,0.00412,0.11239
6.18,0.0041,0.11216
6.2,0.00408,0.11194
6.22,0.00406,0.11171
6.24,0.00404,0.11149
6.26,0.00402,0.11126
6.28,0.004,0.11103
6.3,0.00399,0.11081
6.32,0.00397,0.11058
6.34,0.00395,0.11036
6.36,0.00393,0.11013
6.38,0.00391,0.10991
6.4,0.00389,0.10968
6.42,0.00388,0.10945
6.44,0.00386,0.10923
6.46,0.00384,0.109
6.48,0.00382,0.10878
6.5,0.00381,0.10855
6.52,0.00379,0.10832
6.54,0.00377,0.1081
6.56,0.00376,0.10787
6.58,0.00374,0.10765
6.6,0.00372,0.10742
6.62,0.00371,0.10719
6.64,0.00369,0.10697
6.66,0.00367,0.10674
6.68,0.00366,0.10652
6.7,0.00364,0.10629
6.72,0.00363,0.10606
6.74,0.00361,0.10584
6.76,0.00359,0.10561
6.78,0.00358,0.10538
6.8,0.00356,0.10516
6.82,0.00355,0.10493
6.84,0.00353,0.10471
6.86,0.00352,0.10448
6.88,0.0035,0.10426
6.9,0.00349,0.10404
6.92,0.00348,0.10381
6.94,0.00346,0.10359
6.96,0.00345,0.10336
6.98,0.00343,0.10314
7.0,0.00342,0.10292
7.02,0.00341,0.1027
7.04,0.00339,0.10247
7.06,0.00338,0.10225
7.08,0.00337,0.10203
7.1,0.00335,0.10181
7.12,0.00334,0.10159
7.14,0.00333,0.10137
7.16,0.00331,0.10115
7.18,0.0033,0.10093
7.2,0.00329,0.10071
7.22,0.00328,0.10049
7.24,0.00326,0.10026
7.26,0.00325,0.10004
7.28,0.00324,0.09982
7.3,0.00323,0.0996
7.32,0.00321,0.09938
7.34,0.0032,0.09916
7.36,0.00319,0.09894
7.38,0.00318,0.09872
7.4,0.00317,0.0985
7.42,0.00315,0.09828
7.44,0.00314,0.09807
7.46,0.00313,0.09785
7.48,0.00312,0.09763
7.5,0.00311,0.09741
7.52,0.0031,0.09719
7.54,0.00308,0.09697
7.56,0.00307,0.09676
7.58,0.00306,0.09654
7.6,0.00305,0.09632
7.62,0.00304,0.09611
7.64,0.00303,0.09589
7.66,0.00302,0.09568
7.68,0.00301,0.09546
7.7,0.003,0.09524
7.72,0.00299,0.09503
7.74,0.00298,0.09482
7.76,0.00297,0.0946
7.78,0.00296,0.09439
7.8,0.00295,0.09417
7.82,0.00294,0.09396
7.84,0.00293,0.09375
7.86,0.00292,0.09353
7.88,0.00291,0.09332
7.9,0.0029,0.09311
7.92,0.00289,0.0929
7.94,0.00288,0.09268
7.96,0.00287,0.09247
7.98,0.00286,0.09226
8.0,0.00285,0.09205
8.02,0.00284,0.09184
8.04,0.00283,0.09163
8.06,0.00282,0.09142
8.08,0.00281,0.09121
8.1,0.00281,0.091
8.12,0.0028,0.09079
8.14,0.00279,0.09058
8.16,0.00278,0.09037
8.18,0.00277,0.09016
8.2,0.00276,0.08996
8.22,0.00275,0.08975
8.24,0.00274,0.08954
8.26,0.00273,0.08934
8.28,0.00273,0.08913
8.3,0.00272,0.08893
8.32,0.00271,0.08872
8.34,0.0027,0.08852
8.36,0.00269,0.08831
8.38,0.00268,0.08811
8.4,0.00268,0.08791
8.42,0.00267,0.08771
8.44,0.00266,0.0875
8.46,0.00265,0.0873
8.48,0.00264,0.0871
8.5,0.00264,0.0869
8.52,0.00263,0.08671
8.54,0.00262,0.08651
8.56,0.00261,0.08631
8.58,0.00261,0.08611
8.6,0.0026,0.08592
8.62,0.00259,0.08572
8.64,0.00258,0.08552
8.66,0.00258,0.08533
8.68,0.00257,0.08514
8.7,0.00256,0.08494
8.72,0.00255,0.08475
8.74,0.00255,0.08456
8.76,0.00254,0.08437
8.78,0.00253,0.08417
8.8,0.00252,0.08398
8.82,0.00252,0.08379
8.84,0.00251,0.0836
8.86,0.0025,0.08341
8.88,0.00249,0.08322
8.9,0.00249,0.08303
8.92,0.00248,0.08285
8.94,0.00247,0.08266
8.96,0.00247,0.08247
8.98,0.00246,0.08228
9.0,0.00245,0.08209
9.02,0.00245,0.08191
9.04,0.00244,0.08172
9.06,0.00243,0.08153
9.08,0.00242,0.08135
9.1,0.00242,0.08116
9.12,0.00241,0.08098
9.14,0.0024,0.08079
9.16,0.0024,0.08061
9.18,0.00239,0.08042
9.2,0.00238,0.08024
9.22,0.00238,0.08005
9.24,0.00237,0.07987
9.26,0.00236,0.07968
9.28,0.00236,0.0795
9.3,0.00235,0.07932
9.32,0.00234,0.07913
9.34,0.00234,0.07895
9.36,0.00233,0.07877
9.38,0.00233,0.07859
9.4,0.00232,0.0784
9.42,0.00231,0.07822
9.44,0.00231,0.07804
9.46,0.0023,0.07786
9.48,0.00229,0.07768
9.5,0.00229,0.0775
9.52,0.00228,0.07732
9.54,0.00227,0.07714
9.56,0.00227,0.07697
9.58,0.00226,0.07679
9.6,0.00226,0.07661
9.62,0.00225,0.07643
9.64,0.00224,0.07626
9.66,0.00224,0.07608
9.68,0.00223,0.0759
9.7,0.00223,0.07573
9.72,0.00222,0.07555
9.74,0.00221,0.07538
9.76,0.00221,0.0752
9.78,0.0022,0.07503
9.8,0.0022,0.07485
9.82,0.00219,0.07468
9.84,0.00219,0.0745
9.86,0.00218,0.07433
9.88,0.00217,0.07416
9.9,0.00217,0.07398
9.92,0.00216,0.07381
9.94,0.00216,0.07364
9.96,0.00215,0.07347
9.98,0.00215,0.07329
10.0,0.00214,0.07312
10.02,0.00214,0.07295
10.04,0.00213,0.07278
10.06,0.00213,0.07261
10.08,0.00212,0.07244
10.1,0.00212,0.07227
10.12,0.00211,0.0721
10.14,0.00211,0.07193
10.16,0.0021,0.07176
10.18,0.00209,0.07159
10.2,0.00209,0.07142
10.22,0.00208,0.07126
10.24,0.00208,0.07109
10.26,0.00207,0.07092
10.28,0.00207,0.07075
10.3,0.00206,0.07059
10.32,0.00206,0.07042
10.34,0.00205,0.07025
10.36,0.00205,0.07009
10.38,0.00204,0.06992
10.4,0.00204,0.06976
10.42,0.00203,0.06959
10.44,0.00203,0.06943
10.46,0.00203,0.06927
10.48,0.00202,0.0691
10.5,0.00202,0.06894
10.52,0.00201,0.06878
10.54,0.00201,0.06861
10.56,0.002,0.06845
10.58,0.002,0.06829
10.6,0.00199,0.06813
10.62,0.00199,0.06797
10.64,0.00198,0.06781
10.66,0.00198,0.06765
10.68,0.00197,0.06749
10.7,0.00197,0.06733
10.72,0.00196,0.06717
10.74,0.00196,0.06701
10.76,0.00195,0.06686
10.78,0.00195,0.0667
10.8,0.00195,0.06654
10.82,0.00194,0.06639
10.84,0.00194,0.06623
10.86,0.00193,0.06608
10.88,0.00193,0.06592
10.9,0.00192,0.06577
10.92,0.00192,0.06561
10.94,0.00192,0.06546
10.96,0.00191,0.06531
10.98,0.00191,0.06515
11.0,0.0019,0.065
11.02,0.0019,0.06485
11.04,0.0019,0.0647
11.06,0.00189,0.06455
11.08,0.00189,0.0644
11.1,0.00188,0.06425
11.12,0.00188,0.0641
11.14,0.00188,0.06395
11.16,0.00187,0.0638
11.18,0.00187,0.06365
11.2,0.00186,0.0635
11.22,0.00186,0.06336
11.24,0.00186,0.06321
11.26,0.00185,0.06306
11.28,0.00185,0.06291
11.3,0.00185,0.06277
11.32,0.00184,0.06262
11.34,0.00184,0.06248
11.36,0.00184,0.06233
11.38,0.00183,0.06219
11.4,0.00183,0.06204
11.42,0.00182,0.0619
11.44,0.00182,0.06176
11.46,0.00182,0.06161
11.48,0.00181,0.06147
11.5,0.00181,0.06133
11.52,0.00181,0.06119
11.54,0.0018,0.06104
11.56,0.0018,0.0609
11.58,0.0018,0.06076
11.6,0.00179,0.06062
11.62,0.00179,0.06048
11.64,0.00179,0.06034
11.66,0.00178,0.0602
11.68,0.00178,0.06006
11.7,0.00177,0.05992
11.72,0.00177,0.05978
11.74,0.00177,0.05964
11.76,0.00176,0.0595
11.78,0.00176,0.05936
11.8,0.00176,0.05922
11.82,0.00175,0.05908
11.84,0.00175,0.05895
11.86,0.00175,0.05881
11.88,0.00174,0.05867
11.9,0.00174,0.05854
11.92,0.00174,0.0584
11.94,0.00173,0.05826
11.96,0.00173,0.05813
11.98,0.00173,0.05799
12.0,0.00172,0.05785
12.02,0.00172,0.05772
12.04,0.00172,0.05758
12.06,0.00171,0.05745
12.08,0.00171,0.05731
12.1,0.00171,0.05718
12.12,0.00171,0.05705
12.14,0.0017,0.05691
12.16,0.0017,0.05678
12.18,0.0017,0.05665
12.2,0.00169,0.05651
12.22,0.00169,0.05638
12.24,0.00169,0.05625
12.26,0.00168,0.05611
12.28,0.00168,0.05598
12.3,0.00168,0.05585
12.32,0.00167,0.05572
12.34,0.00167,0.05559
12.36,0.00167,0.05546
12.38,0.00167,0.05533
12.4,0.00166,0.0552
12.42,0.00166,0.05507
12.44,0.00166,0.05494
12.46,0.00165,0.05481
12.48,0.00165,0.05468
12.5,0.00165,0.05455
12.52,0.00165,0.05442
12.54,0.00164,0.0543
12.56,0.00164,0.05417
12.58,0.00164,0.05404
12.6,0.00163,0.05391
12.62,0.00163,0.05379
12.64,0.00163,0.05366
12.66,0.00163,0.05354
12.68,0.00162,0.05341
12.7,0.00162,0.05328
12.72,0.00162,0.05316
12.74,0.00162,0.05303
12.76,0.00161,0.05291
12.78,0.00161,0.05279
12.8,0.00161,0.05267
12.82,0.00161,0.05254
12.84,0.0016,0.05242
12.86,0.0016,0.0523
12.88,0.0016,0.05218
12.9,0.0016,0.05206
12.92,0.00159,0.05195
12.94,0.00159,0.05183
12.96,0.00159,0.05171
12.98,0.00159,0.0516
13.0,0.00158,0.05148
13.02,0.00158,0.05137
13.04,0.00158,0.05125
13.06,0.00158,0.05114
13.08,0.00157,0.05102
13.1,0.00157,0.05091
13.12,0.00157,0.0508
13.14,0.00157,0.05068
13.16,0.00156,0.05057
13.18,0.00156,0.05046
13.2,0.00156,0.05035
13.22,0.00156,0.05025
13.24,0.00155,0.05014
13.26,0.00155,0.05003
13.28,0.00155,0.04992
13.3,0.00155,0.04981
13.32,0.00154,0.0497
13.34,0.00154,0.04959
13.36,0.00154,0.04949
13.38,0.00154,0.04938
13.4,0.00154,0.04928
13.42,0.00153,0.04917
13.44,0.00153,0.04906
13.46,0.00153,0.04896
13.48,0.00153,0.04885
13.5,0.00152,0.04875
13.52,0.00152,0.04865
13.54,0.00152,0.04854
13.56,0.00152,0.04844
13.58,0.00151,0.04833
13.6,0.00151,0.04823
13.62,0.00151,0.04813
13.64,0.00151,0.04803
13.66,0.00151,0.04792
13.68,0.0015,0.04782
13.7,0.0015,0.04772
13.72,0.0015,0.04762
13.74,0.0015,0.04752
13.76,0.00149,0.04742
13.78,0.00149,0.04733
13.8,0.00149,0.04723
13.82,0.00149,0.04713
13.84,0.00149,0.04703
13.86,0.00148,0.04694
13.88,0.00148,0.04684
13.9,0.00148,0.04674
13.92,0.00148,0.04665
13.94,0.00148,0.04655
13.96,0.00147,0.04645
13.98,0.00147,0.04636
14.0,0.00147,0.04626
14.02,0.00147,0.04617
14.04,0.00146,0.04607
14.06,0.00146,0.04598
14.08,0.00146,0.04589
14.1,0.00146,0.04579
14.12,0.00146,0.0457
14.14,0.00145,0.04561
14.16,0.00145,0.04551
14.18,0.00145,0.04542
14.2,0.00145,0.04533
14.22,0.00145,0.04524
14.24,0.00144,0.04515
14.26,0.00144,0.04506
14.28,0.00144,0.04496
14.3,0.00144,0.04487
14.32,0.00144,0.04478
14.34,0.00143,0.04469
14.36,0.00143,0.0446
14.38,0.00143,0.04451
14.4,0.00143,0.04442
14.42,0.00143,0.04434
14.44,0.00142,0.04425
14.46,0.00142,0.04416
14.48,0.00142,0.04407
14.5,0.00142,0.04398
14.52,0.00142,0.04389
14.54,0.00142,0.0438
14.56,0.00141,0.04372
14.58,0.00141,0.04363
14.6,0.00141,0.04354
14.62,0.00141,0.04345
14.64,0.00141,0.04337
14.66,0.0014,0.04328
14.68,0.0014,0.04319
14.7,0.0014,0.0431
14.72,0.0014,0.04302
14.74,0.0014,0.04293
14.76,0.0014,0.04285
14.78,0.00139,0.04276
14.8,0.00139,0.04267
14.82,0.00139,0.04259
14.84,0.00139,0.04251
14.86,0.00139,0.04242
14.88,0.00138,0.04234
14.9,0.00138,0.04225
14.92,0.00138,0.04217
14.94,0.00138,0.04209
14.96,0.00138,0.04201
14.98,0.00138,0.04193
15.0,0.00137,0.04185
15.02,0.00137,0.04176
15.04,0.00137,0.04168
15.06,0.00137,0.04161
15.08,0.00137,0.04153
15.1,0.00137,0.04145
15.12,0.00136,0.04137
15.14,0.00136,0.04129
15.16,0.00136,0.04121
15.18,0.00136,0.04113
15.2,0.00136,0.04105
15.22,0.00135,0.04097
15.24,0.00135,0.0409
15.26,0.00135,0.04082
15.28,0.00135,0.04074
15.3,0.00135,0.04066
15.32,0.00135,0.04058
15.34,0.00134,0.04051
15.36,0.00134,0.04043
15.38,0.00134,0.04035
15.4,0.00134,0.04027
15.42,0.00134,0.0402
15.44,0.00134,0.04012
15.46,0.00134,0.04004
15.48,0.00133,0.03997
15.5,0.00133,0.03989
15.52,0.00133,0.03982
15.54,0.00133,0.03974
15.56,0.00133,0.03966
15.58,0.00133,0.03959
15.6,0.00132,0.03951
15.62,0.00132,0.03944
15.64,0.00132,0.03936
15.66,0.00132,0.03929
15.68,0.00132,0.03922
15.7,0.00132,0.03914
15.72,0.00131,0.03907
15.74,0.00131,0.039
15.76,0.00131,0.03892
15.78,0.00131,0.03885
15.8,0.00131,0.03878
15.82,0.00131,0.03871
15.84,0.00131,0.03864
15.86,0.0013,0.03856
15.88,0.0013,0.03849
15.9,0.0013,0.03842
15.92,0.0013,0.03835
15.94,0.0013,0.03828
15.96,0.0013,0.03821
15.98,0.00129,0.03814
16.0,0.00129,0.03807
16.02,0.00129,0.038
16.04,0.00129,0.03793
16.06,0.00129,0.03786
16.08,0.00129,0.03779
16.1,0.00129,0.03772
16.12,0.00128,0.03765
16.14,0.00128,0.03758
16.16,0.00128,0.03751
16.18,0.00128,0.03744
16.2,0.00128,0.03737
16.22,0.00128,0.0373
16.24,0.00128,0.03723
16.26,0.00127,0.03716
16.28,0.00127,0.0371
16.3,0.00127,0.03703
16.32,0.00127,0.03696
16.34,0.00127,0.03689
16.36,0.00127,0.03682
16.38,0.00127,0.03675
16.4,0.00126,0.03669
16.42,0.00126,0.03662
16.44,0.00126,0.03655
16.46,0.00126,0.03648
16.48,0.00126,0.03642
16.5,0.00126,0.03635
16.52,0.00126,0.03628
16.54,0.00125,0.03622
16.56,0.00125,0.03615
16.58,0.00125,0.03608
16.6,0.00125,0.03602
16.62,0.00125,0.03595
16.64,0.00125,0.03589
16.66,0.00125,0.03582
16.68,0.00124,0.03576
16.7,0.00124,0.03569
16.72,0.00124,0.03563
16.74,0.00124,0.03556
16.76,0.00124,0.0355
16.78,0.00124,0.03543
16.8,0.00124,0.03537
16.82,0.00123,0.0353
16.84,0.00123,0.03524
16.86,0.00123,0.03518
16.88,0.00123,0.03511
16.9,0.00123,0.03505
16.92,0.00123,0.03499
16.94,0.00123,0.03492
16.96,0.00123,0.03486
16.98,0.00122,0.0348
17.0,0.00122,0.03474
17.02,0.00122,0.03467
17.04,0.00122,0.03461
17.06,0.00122,0.03455
17.08,0.00122,0.03449
17.1,0.00122,0.03443
17.12,0.00122,0.03437
17.14,0.00121,0.0343
17.16,0.00121,0.03424
17.18,0.00121,0.03418
17.2,0.00121,0.03412
17.22,0.00121,0.03406
17.24,0.00121,0.034
17.26,0.00121,0.03394
17.28,0.00121,0.03388
17.3,0.0012,0.03382
17.32,0.0012,0.03376
17.34,0.0012,0.0337
17.36,0.0012,0.03364
17.38,0.0012,0.03358
17.4,0.0012,0.03352
17.42,0.0012,0.03346
17.44,0.0012,0.0334
17.46,0.00119,0.03335
17.48,0.00119,0.03329
17.5,0.00119,0.03323
17.52,0.00119,0.03317
17.54,0.00119,0.03311
17.56,0.00119,0.03306
17.58,0.00119,0.033
17.6,0.00119,0.03294
17.62,0.00118,0.03288
17.64,0.00118,0.03283
17.66,0.00118,0.03277
17.68,0.00118,0.03271
17.7,0.00118,0.03266
17.72,0.00118,0.0326
17.74,0.00118,0.03254
17.76,0.00118,0.03249
17.78,0.00117,0.03243
17.8,0.00117,0.03238
17.82,0.00117,0.03232
17.84,0.00117,0.03226
17.86,0.00117,0.03221
17.88,0.00117,0.03215
17.9,0.00117,0.0321
17.92,0.00117,0.03204
17.94,0.00117,0.03199
17.96,0.00116,0.03193
17.98,0.00116,0.03188
18.0,0.00116,0.03182
18.02,0.00116,0.03177
18.04,0.00116,0.03172
18.06,0.00116,0.03166
18.08,0.00116,0.03161
18.1,0.00116,0.03155
18.12,0.00116,0.0315
18.14,0.00115,0.03144
18.16,0.00115,0.03139
18.18,0.00115,0.03134
18.2,0.00115,0.03128
18.22,0.00115,0.03123
18.24,0.00115,0.03118
18.26,0.00115,0.03112
18.28,0.00115,0.03107
18.3,0.00115,0.03102
18.32,0.00114,0.03096
18.34,0.00114,0.03091
18.36,0.00114,0.03086
18.38,0.00114,0.03081
18.4,0.00114,0.03075
18.42,0.00114,0.0307
18.44,0.00114,0.03065
18.46,0.00114,0.0306
18.48,0.00114,0.03055
18.5,0.00113,0.0305
18.52,0.00113,0.03044
18.54,0.00113,0.03039
18.56,0.00113,0.03034
18.58,0.00113,0.03029
18.6,0.00113,0.03024
18.62,0.00113,0.03019
18.64,0.00113,0.03014
18.66,0.00113,0.03009
18.68,0.00112,0.03004
18.7,0.00112,0.02999
18.72,0.00112,0.02994
18.74,0.00112,0.02988
18.76,0.00112,0.02983
18.78,0.00112,0.02978
18.8,0.00112,0.02973
18.82,0.00112,0.02969
18.84,0.00112,0.02964
18.86,0.00112,0.02959
18.88,0.00111,0.02954
18.9,0.00111,0.02949
18.92,0.00111,0.02944
18.94,0.00111,0.02939
18.96,0.00111,0.02934
